#    s        x        y     Ue/Vinf    Dstar     Theta      Cf       H
   0.00000  1.10873 -0.02773  0.83346  0.000000  0.000000  0.000000     1.000
   0.00634  1.10270 -0.02579  0.94956  0.000000  0.000000  0.000000     1.000
   0.01854  1.09104 -0.02220  0.99650  0.000000  0.000000  0.000000     1.000
   0.03312  1.07704 -0.01814  1.03345  0.000000  0.000000  0.000000     1.000
   0.04805  1.06264 -0.01418  1.05902  0.000000  0.000000  0.000000     1.000
   0.06305  1.04812 -0.01040  1.08055  0.000000  0.000000  0.000000     1.000
   0.07805  1.03356 -0.00683  1.09475  0.000000  0.000000  0.000000     1.000
   0.09307  1.01892 -0.00344  1.10844  0.000000  0.000000  0.000000     1.000
   0.10775  1.00457 -0.00038  1.10018  0.000000  0.000000  0.000000     1.000
   0.12220  0.99044  0.00265  1.10003  0.000000  0.000000  0.000000     1.000
   0.13698  0.97601  0.00586  1.12975  0.000000  0.000000  0.000000     1.000
   0.15216  0.96116  0.00899  1.13626  0.000000  0.000000  0.000000     1.000
   0.16736  0.94626  0.01202  1.14677  0.000000  0.000000  0.000000     1.000
   0.18258  0.93132  0.01493  1.15460  0.000000  0.000000  0.000000     1.000
   0.19781  0.91635  0.01773  1.16164  0.000000  0.000000  0.000000     1.000
   0.21305  0.90135  0.02042  1.16797  0.000000  0.000000  0.000000     1.000
   0.22830  0.88633  0.02301  1.17400  0.000000  0.000000  0.000000     1.000
   0.24355  0.87128  0.02551  1.17924  0.000000  0.000000  0.000000     1.000
   0.25881  0.85621  0.02790  1.18410  0.000000  0.000000  0.000000     1.000
   0.27408  0.84112  0.03020  1.18871  0.000000  0.000000  0.000000     1.000
   0.28935  0.82600  0.03241  1.19258  0.000000  0.000000  0.000000     1.000
   0.30463  0.81087  0.03453  1.19666  0.000000  0.000000  0.000000     1.000
   0.31991  0.79573  0.03656  1.20008  0.000000  0.000000  0.000000     1.000
   0.33519  0.78056  0.03850  1.20377  0.000000  0.000000  0.000000     1.000
   0.35049  0.76539  0.04036  1.20685  0.000000  0.000000  0.000000     1.000
   0.36578  0.75020  0.04214  1.20990  0.000000  0.000000  0.000000     1.000
   0.38108  0.73499  0.04384  1.21295  0.000000  0.000000  0.000000     1.000
   0.39638  0.71978  0.04546  1.21586  0.000000  0.000000  0.000000     1.000
   0.41169  0.70455  0.04700  1.21837  0.000000  0.000000  0.000000     1.000
   0.42699  0.68931  0.04847  1.22116  0.000000  0.000000  0.000000     1.000
   0.44230  0.67407  0.04986  1.22348  0.000000  0.000000  0.000000     1.000
   0.45761  0.65881  0.05117  1.22604  0.000000  0.000000  0.000000     1.000
   0.47293  0.64355  0.05242  1.22816  0.000000  0.000000  0.000000     1.000
   0.48824  0.62828  0.05358  1.23069  0.000000  0.000000  0.000000     1.000
   0.50356  0.61300  0.05468  1.23291  0.000000  0.000000  0.000000     1.000
   0.51887  0.59772  0.05570  1.23497  0.000000  0.000000  0.000000     1.000
   0.53419  0.58243  0.05666  1.23724  0.000000  0.000000  0.000000     1.000
   0.54951  0.56714  0.05754  1.23967  0.000000  0.000000  0.000000     1.000
   0.56483  0.55184  0.05835  1.24166  0.000000  0.000000  0.000000     1.000
   0.58015  0.53654  0.05909  1.24421  0.000000  0.000000  0.000000     1.000
   0.59546  0.52124  0.05975  1.24641  0.000000  0.000000  0.000000     1.000
   0.61077  0.50594  0.06034  1.24873  0.000000  0.000000  0.000000     1.000
   0.62608  0.49064  0.06086  1.25089  0.000000  0.000000  0.000000     1.000
   0.64139  0.47534  0.06130  1.25353  0.000000  0.000000  0.000000     1.000
   0.65669  0.46004  0.06167  1.25560  0.000000  0.000000  0.000000     1.000
   0.67199  0.44474  0.06195  1.25817  0.000000  0.000000  0.000000     1.000
   0.68729  0.42945  0.06215  1.26035  0.000000  0.000000  0.000000     1.000
   0.70258  0.41416  0.06227  1.26283  0.000000  0.000000  0.000000     1.000
   0.71787  0.39887  0.06231  1.26515  0.000000  0.000000  0.000000     1.000
   0.73315  0.38359  0.06226  1.26763  0.000000  0.000000  0.000000     1.000
   0.74842  0.36832  0.06212  1.26987  0.000000  0.000000  0.000000     1.000
   0.76369  0.35305  0.06188  1.27239  0.000000  0.000000  0.000000     1.000
   0.77895  0.33779  0.06155  1.27483  0.000000  0.000000  0.000000     1.000
   0.79420  0.32255  0.06112  1.27723  0.000000  0.000000  0.000000     1.000
   0.80945  0.30731  0.06059  1.27973  0.000000  0.000000  0.000000     1.000
   0.82468  0.29209  0.05995  1.28218  0.000000  0.000000  0.000000     1.000
   0.83990  0.27689  0.05920  1.28472  0.000000  0.000000  0.000000     1.000
   0.85511  0.26171  0.05833  1.28711  0.000000  0.000000  0.000000     1.000
   0.87030  0.24655  0.05733  1.28971  0.000000  0.000000  0.000000     1.000
   0.88547  0.23142  0.05620  1.29203  0.000000  0.000000  0.000000     1.000
   0.90063  0.21631  0.05494  1.29449  0.000000  0.000000  0.000000     1.000
   0.91576  0.20125  0.05352  1.29671  0.000000  0.000000  0.000000     1.000
   0.93087  0.18623  0.05195  1.29888  0.000000  0.000000  0.000000     1.000
   0.94595  0.17125  0.05021  1.30046  0.000000  0.000000  0.000000     1.000
   0.96100  0.15632  0.04828  1.30173  0.000000  0.000000  0.000000     1.000
   0.97603  0.14144  0.04617  1.30281  0.000000  0.000000  0.000000     1.000
   0.99103  0.12662  0.04385  1.30408  0.000000  0.000000  0.000000     1.000
   1.00597  0.11189  0.04132  1.30538  0.000000  0.000000  0.000000     1.000
   1.02086  0.09726  0.03856  1.30728  0.000000  0.000000  0.000000     1.000
   1.03566  0.08278  0.03554  1.30987  0.000000  0.000000  0.000000     1.000
   1.05032  0.06849  0.03222  1.31344  0.000000  0.000000  0.000000     1.000
   1.06478  0.05450  0.02858  1.31889  0.000000  0.000000  0.000000     1.000
   1.07887  0.04099  0.02457  1.32670  0.000000  0.000000  0.000000     1.000
   1.09218  0.02842  0.02021  1.33846  0.000000  0.000000  0.000000     1.000
   1.10365  0.01784  0.01576  1.35421  0.000000  0.000000  0.000000     1.000
   1.11205  0.01042  0.01184  1.36920  0.000000  0.000000  0.000000     1.000
   1.11761  0.00582  0.00871  1.37501  0.000000  0.000000  0.000000     1.000
   1.12140  0.00301  0.00617  1.35855  0.000000  0.000000  0.000000     1.000
   1.12416  0.00130  0.00400  1.29881  0.000000  0.000000  0.000000     1.000
   1.12633  0.00035  0.00205  1.15690  0.000000  0.000000  0.000000     1.000
   1.12810  0.00001  0.00031  0.96195  0.000000  0.000000  0.000000     1.000
   1.12980  0.00034 -0.00135  0.52820  0.000000  0.000000  0.000000     1.000
   1.13188  0.00155 -0.00304  0.06653  0.000000  0.000000  0.000000     1.000
   1.13455  0.00356 -0.00480 -0.19686  0.000000  0.000000  0.000000     1.000
   1.13829  0.00670 -0.00683 -0.39229  0.000000  0.000000  0.000000     1.000
   1.14391  0.01172 -0.00936 -0.54657  0.000000  0.000000  0.000000     1.000
   1.15264  0.01984 -0.01257 -0.67051  0.000000  0.000000  0.000000     1.000
   1.16457  0.03122 -0.01616 -0.75957  0.000000  0.000000  0.000000     1.000
   1.17820  0.04442 -0.01954 -0.81775  0.000000  0.000000  0.000000     1.000
   1.19249  0.05839 -0.02254 -0.85621  0.000000  0.000000  0.000000     1.000
   1.20712  0.07279 -0.02520 -0.88185  0.000000  0.000000  0.000000     1.000
   1.22200  0.08746 -0.02759 -0.90141  0.000000  0.000000  0.000000     1.000
   1.23700  0.10231 -0.02977 -0.91734  0.000000  0.000000  0.000000     1.000
   1.25208  0.11725 -0.03178 -0.93098  0.000000  0.000000  0.000000     1.000
   1.26721  0.13228 -0.03362 -0.94280  0.000000  0.000000  0.000000     1.000
   1.28238  0.14735 -0.03532 -0.95335  0.000000  0.000000  0.000000     1.000
   1.29757  0.16245 -0.03689 -0.96284  0.000000  0.000000  0.000000     1.000
   1.31277  0.17758 -0.03834 -0.97163  0.000000  0.000000  0.000000     1.000
   1.32798  0.19273 -0.03966 -0.97965  0.000000  0.000000  0.000000     1.000
   1.34318  0.20789 -0.04086 -0.98725  0.000000  0.000000  0.000000     1.000
   1.35839  0.22306 -0.04194 -0.99420  0.000000  0.000000  0.000000     1.000
   1.37358  0.23822 -0.04289 -1.00064  0.000000  0.000000  0.000000     1.000
   1.38876  0.25338 -0.04371 -1.00644  0.000000  0.000000  0.000000     1.000
   1.40393  0.26853 -0.04439 -1.01145  0.000000  0.000000  0.000000     1.000
   1.41909  0.28368 -0.04493 -1.01526  0.000000  0.000000  0.000000     1.000
   1.43424  0.29883 -0.04532 -1.01828  0.000000  0.000000  0.000000     1.000
   1.44939  0.31398 -0.04557 -1.02025  0.000000  0.000000  0.000000     1.000
   1.46454  0.32913 -0.04567 -1.02138  0.000000  0.000000  0.000000     1.000
   1.47969  0.34428 -0.04562 -1.02148  0.000000  0.000000  0.000000     1.000
   1.49485  0.35944 -0.04542 -1.02049  0.000000  0.000000  0.000000     1.000
   1.51002  0.37460 -0.04509 -1.01880  0.000000  0.000000  0.000000     1.000
   1.52519  0.38977 -0.04461 -1.01612  0.000000  0.000000  0.000000     1.000
   1.54038  0.40494 -0.04400 -1.01266  0.000000  0.000000  0.000000     1.000
   1.55558  0.42012 -0.04326 -1.00837  0.000000  0.000000  0.000000     1.000
   1.57079  0.43531 -0.04239 -1.00351  0.000000  0.000000  0.000000     1.000
   1.58602  0.45051 -0.04141 -0.99771  0.000000  0.000000  0.000000     1.000
   1.60127  0.46571 -0.04032 -0.99140  0.000000  0.000000  0.000000     1.000
   1.61654  0.48094 -0.03913 -0.98426  0.000000  0.000000  0.000000     1.000
   1.63184  0.49619 -0.03785 -0.97667  0.000000  0.000000  0.000000     1.000
   1.64717  0.51145 -0.03649 -0.96884  0.000000  0.000000  0.000000     1.000
   1.66252  0.52674 -0.03508 -0.96108  0.000000  0.000000  0.000000     1.000
   1.67789  0.54204 -0.03360 -0.95310  0.000000  0.000000  0.000000     1.000
   1.69328  0.55736 -0.03209 -0.94496  0.000000  0.000000  0.000000     1.000
   1.70870  0.57270 -0.03054 -0.93707  0.000000  0.000000  0.000000     1.000
   1.72412  0.58804 -0.02897 -0.92880  0.000000  0.000000  0.000000     1.000
   1.73957  0.60341 -0.02738 -0.92103  0.000000  0.000000  0.000000     1.000
   1.75503  0.61878 -0.02577 -0.91272  0.000000  0.000000  0.000000     1.000
   1.77049  0.63416 -0.02417 -0.90472  0.000000  0.000000  0.000000     1.000
   1.78595  0.64954 -0.02256 -0.89618  0.000000  0.000000  0.000000     1.000
   1.80141  0.66491 -0.02097 -0.88759  0.000000  0.000000  0.000000     1.000
   1.81685  0.68028 -0.01938 -0.87874  0.000000  0.000000  0.000000     1.000
   1.83229  0.69563 -0.01782 -0.86910  0.000000  0.000000  0.000000     1.000
   1.84772  0.71098 -0.01627 -0.85770  0.000000  0.000000  0.000000     1.000
   1.86306  0.72625 -0.01475 -0.84678  0.000000  0.000000  0.000000     1.000
   1.87819  0.74131 -0.01326 -0.82522  0.000000  0.000000  0.000000     1.000
   1.89268  0.75574 -0.01199 -0.79740  0.000000  0.000000  0.000000     1.000
   1.90700  0.77004 -0.01124 -0.79760  0.000000  0.000000  0.000000     1.000
   1.92176  0.78480 -0.01091 -0.80736  0.000000  0.000000  0.000000     1.000
   1.93676  0.79979 -0.01082 -0.81445  0.000000  0.000000  0.000000     1.000
   1.95188  0.81492 -0.01091 -0.82119  0.000000  0.000000  0.000000     1.000
   1.96709  0.83013 -0.01114 -0.82704  0.000000  0.000000  0.000000     1.000
   1.98235  0.84538 -0.01148 -0.83215  0.000000  0.000000  0.000000     1.000
   1.99765  0.86067 -0.01190 -0.83661  0.000000  0.000000  0.000000     1.000
   2.01296  0.87598 -0.01241 -0.84064  0.000000  0.000000  0.000000     1.000
   2.02830  0.89131 -0.01298 -0.84373  0.000000  0.000000  0.000000     1.000
   2.04365  0.90664 -0.01361 -0.84697  0.000000  0.000000  0.000000     1.000
   2.05901  0.92199 -0.01430 -0.84915  0.000000  0.000000  0.000000     1.000
   2.07437  0.93733 -0.01504 -0.85190  0.000000  0.000000  0.000000     1.000
   2.08974  0.95268 -0.01583 -0.85437  0.000000  0.000000  0.000000     1.000
   2.10517  0.96809 -0.01665 -0.85642  0.000000  0.000000  0.000000     1.000
   2.12059  0.98349 -0.01750 -0.85620  0.000000  0.000000  0.000000     1.000
   2.13601  0.99888 -0.01837 -0.85551  0.000000  0.000000  0.000000     1.000
   2.15142  1.01426 -0.01926 -0.85278  0.000000  0.000000  0.000000     1.000
   2.16677  1.02959 -0.02019 -0.84905  0.000000  0.000000  0.000000     1.000
   2.18205  1.04484 -0.02117 -0.83943  0.000000  0.000000  0.000000     1.000
   2.19679  1.05953 -0.02229 -0.82486  0.000000  0.000000  0.000000     1.000
   2.21147  1.07414 -0.02380 -0.83318  0.000000  0.000000  0.000000     1.000
   2.22597  1.08853 -0.02557 -0.83249  0.000000  0.000000  0.000000     1.000
   2.23962  1.10203 -0.02758 -0.84043  0.000000  0.000000  0.000000     1.000
   2.24632  1.10863 -0.02873 -0.83346  0.000000  0.000000  0.000000     1.000
